Sensor Model:   RX-102A-AA-0.05B
Serial Number:  U05566
Data Format:    4      (Log Ohms/Kelvin)
SetPoint Limit: 40.0      (Kelvin)
Temperature coefficient:  1 (Negative)
Number of Breakpoints:   140

No.   Units      Temperature (K)

  1  3.01542        44.939
  2  3.01721        40.000
  3  3.01771        38.800
  4  3.01820        37.700
  5  3.01871        36.600
  6  3.01926        35.500
  7  3.01978        34.500
  8  3.02034        33.500
  9  3.02093        32.500
 10  3.02155        31.500
 11  3.02222        30.500
 12  3.02293        29.500
 13  3.02368        28.500
 14  3.02441        27.600
 15  3.02518        26.700
 16  3.02601        25.800
 17  3.02689        24.900
 18  3.02783        24.000
 19  3.02884        23.100
 20  3.02993        22.200
 21  3.03097        21.400
 22  3.03209        20.600
 23  3.03306        19.950
 24  3.03385        19.450
 25  3.03468        18.950
 26  3.03555        18.450
 27  3.03646        17.950
 28  3.03733        17.500
 29  3.03824        17.050
 30  3.03921        16.600
 31  3.04022        16.150
 32  3.04128        15.700
 33  3.04241        15.250
 34  3.04360        14.800
 35  3.04486        14.350
 36  3.04620        13.900
 37  3.04761        13.450
 38  3.04912        13.000
 39  3.05053        12.600
 40  3.05203        12.200
 41  3.05361        11.800
 42  3.05529        11.400
 43  3.05708        11.000
 44  3.05874        10.650
 45  3.06051        10.300
 46  3.06240         9.950
 47  3.06443         9.600
 48  3.06630         9.300
 49  3.06830         9.000
 50  3.07079         8.650
 51  3.07382         8.250
 52  3.07702         7.850
 53  3.07960         7.550
 54  3.08237         7.250
 55  3.08543         6.950
 56  3.08877         6.650
 57  3.09237         6.350
 58  3.09623         6.050
 59  3.10025         5.760
 60  3.10449         5.480
 61  3.10912         5.200
 62  3.11420         4.920
 63  3.11937         4.660
 64  3.12503         4.400
 65  3.13128         4.140
 66  3.13657         3.940
 67  3.14139         3.770
 68  3.14659         3.600
 69  3.15186         3.440
 70  3.15753         3.280
 71  3.16367         3.120
 72  3.16991         2.970
 73  3.17666         2.820
 74  3.18401         2.670
 75  3.19148         2.530
 76  3.19961         2.390
 77  3.20851         2.250
 78  3.21759         2.120
 79  3.22754         1.990
 80  3.23769         1.870
 81  3.24886         1.750
 82  3.26129         1.630
 83  3.27399         1.520
 84  3.28810         1.410
 85  3.30391         1.300
 86  3.31842         1.210
 87  3.32196         1.190
 88  3.32812         1.155
 89  3.33558         1.115
 90  3.34345         1.075
 91  3.35182         1.035
 92  3.36071         0.995
 93  3.37012         0.955
 94  3.38007         0.915
 95  3.39062         0.875
 96  3.40189         0.835
 97  3.41243         0.800
 98  3.42363         0.765
 99  3.43561         0.730
100  3.44842         0.695
101  3.46217         0.660
102  3.47698         0.625
103  3.49300         0.590
104  3.50785         0.560
105  3.52378         0.530
106  3.53809         0.505
107  3.55085         0.484
108  3.56373         0.464
109  3.57737         0.444
110  3.59189         0.424
111  3.60737         0.404
112  3.62225         0.386
113  3.63808         0.368
114  3.65502         0.350
115  3.67320         0.332
116  3.69059         0.316
117  3.71040         0.299
118  3.73056         0.283
119  3.75097         0.268
120  3.77302         0.253
121  3.79696         0.238
122  3.82130         0.224
123  3.84773         0.210
124  3.87664         0.196
125  3.90604         0.183
126  3.93816         0.170
127  3.97358         0.157
128  4.00980         0.145
129  4.04659         0.134
130  4.08390         0.124
131  4.12153         0.115
132  4.16420         0.106
133  4.21112         0.098
134  4.26287         0.090
135  4.32345         0.082
136  4.44408         0.068
137  4.54611         0.057
138  4.60612         0.051
139  4.61999         0.050
140  4.69643         0.044
