Sensor Model:	RX-102A-AA-0.05B
Serial Number:	U05566
Data Format:	7	(Ohms/Kelvin)
Setpoint Limit:	40

Measurement (ohms)	Temp (K)	Curvature
1.03615E+03	4.49128E+01	6.71607E-02
1.03860E+03	4.19666E+01	5.80709E-02
1.04144E+03	3.89791E+01	4.75153E-02
1.04485E+03	3.59108E+01	3.79146E-02
1.04873E+03	3.29458E+01	2.95288E-02
1.05193E+03	3.08428E+01	2.42943E-02
1.05503E+03	2.90479E+01	2.02420E-02
1.05811E+03	2.74594E+01	1.70537E-02
1.06150E+03	2.58943E+01	1.42648E-02
1.06543E+03	2.42862E+01	1.17835E-02
1.06975E+03	2.27326E+01	9.72107E-03
1.07480E+03	2.11424E+01	7.92601E-03
1.07869E+03	2.00582E+01	6.85992E-03
1.08252E+03	1.90941E+01	5.97399E-03
1.08676E+03	1.81296E+01	5.15418E-03
1.09141E+03	1.71769E+01	4.39645E-03
1.09664E+03	1.62184E+01	3.68345E-03
1.10256E+03	1.52548E+01	3.02242E-03
1.10925E+03	1.42940E+01	2.43452E-03
1.11697E+03	1.33213E+01	1.93544E-03
1.12603E+03	1.23273E+01	1.54576E-03
1.13690E+03	1.13023E+01	1.26782E-03
1.14998E+03	1.02678E+01	1.04136E-03
1.16607E+03	9.23619E+00	7.63680E-04
1.18620E+03	8.20845E+00	3.26678E-04
1.21188E+03	7.14212E+00	4.55411E-04
1.23799E+03	6.32103E+00	1.90056E-04
1.27112E+03	5.50104E+00	1.73802E-04
1.29592E+03	5.00877E+00	1.19780E-04
1.32027E+03	4.60036E+00	9.81192E-05
1.34883E+03	4.19487E+00	7.51429E-05
1.36449E+03	3.99992E+00	6.66335E-05
1.38199E+03	3.80134E+00	5.77742E-05
1.40154E+03	3.60044E+00	4.98178E-05
1.42310E+03	3.40091E+00	4.25529E-05
1.44761E+03	3.19807E+00	3.58761E-05
1.47403E+03	3.00363E+00	3.01051E-05
1.50458E+03	2.80500E+00	2.48278E-05
1.54104E+03	2.59815E+00	2.00334E-05
1.58137E+03	2.40047E+00	1.61004E-05
1.62882E+03	2.20140E+00	1.27239E-05
1.68662E+03	1.99754E+00	9.80655E-06
1.75395E+03	1.80143E+00	7.39323E-06
1.83871E+03	1.60194E+00	5.22831E-06
1.94797E+03	1.40009E+00	3.50182E-06
2.01111E+03	1.30409E+00	2.91951E-06
2.08979E+03	1.20070E+00	2.38161E-06
2.13346E+03	1.14990E+00	2.15517E-06
2.23070E+03	1.05104E+00	1.71629E-06
2.35270E+03	9.49202E-01	1.06203E-06
2.48990E+03	8.54973E-01	9.30707E-07
2.65365E+03	7.64536E-01	6.17760E-07
2.83550E+03	6.84189E-01	4.58249E-07
3.04633E+03	6.10005E-01	3.20557E-07
3.31765E+03	5.35547E-01	2.17014E-07
3.60899E+03	4.73798E-01	1.49966E-07
3.95071E+03	4.17774E-01	1.02223E-07
4.34222E+03	3.68491E-01	6.95721E-08
4.73808E+03	3.29819E-01	4.93755E-08
4.97467E+03	3.10637E-01	4.10032E-08
5.27166E+03	2.89778E-01	3.23509E-08
5.79005E+03	2.59974E-01	2.22301E-08
6.46780E+03	2.30013E-01	1.43989E-08
7.26520E+03	2.03392E-01	9.26319E-09
8.09520E+03	1.82158E-01	6.24018E-09
9.10970E+03	1.62110E-01	4.16013E-09
1.01348E+04	1.46350E-01	2.94882E-09
1.17179E+04	1.27983E-01	1.88673E-09
1.37176E+04	1.11618E-01	1.15992E-09
1.66704E+04	9.58082E-02	5.81791E-10
2.00127E+04	8.43797E-02	2.56801E-10
2.46884E+04	7.34362E-02	8.78198E-11
2.98448E+04	6.41754E-02	6.58258E-11
3.49688E+04	5.68351E-02	7.30795E-11
3.98500E+04	5.15582E-02	6.33226E-11
4.45787E+04	4.77408E-02	1.45784E-11
4.97080E+04	4.39337E-02	-3.82952E-11
